=~=~=~=~=~=~=~=~=~=~=~= PuTTY log 2013.10.16 09:14:31 =~=~=~=~=~=~=~=~=~=~=~=

PHOTO RESEARCH - The Light Measurement People
---------------------------------------------
 Instrument       : PR-650         Average Cycles   : 3   
 Serial Number    : 60063509       Integration Time : 79 msec
 Measurement Date : 2013/09/03     Frequency        : DC
 Measurement Time : 00:29:51       File Num/Protect : 14  U
 Accessory        : MS-7

P H O T O M E T R I C   D A T A
-------------------------------
 Luminance      = 5.176e+01 footLamberts
                = 1.773e+02 candelas per square meter

C O L O R I M E T R I C   D A T A
---------------------------------
 CIE 1931:            X = 3.675e+02      x = .141 
( 2 degree observer)  Y = 1.773e+02      y = 0.068 
                      Z = 2.055e+03      z = .790 

 CIE/UCS 1960:  u = .160           v = .116 
 CIE/UCS 1976:  u'= .160           v'= .174 

 Correlated Color Temperature = not applicable.

R A D I O M E T R I C   D A T A
-------------------------------
 Integrated Radiance         : 2.383e+00 w/sr/m2
 Peak Wavelength  : 440 nm
 Peak Radiance               : 4.831e-02 w/sr/m2

S P E C T R A L   D A T A
-------------------------
 Corrected Spectral Radiance (w/sr/m2)

380 1.284e-04  460 2.777e-02  540 3.105e-04  620 4.266e-05  700 5.468e-05  
384 1.557e-04  464 2.637e-02  544 3.455e-04  624 3.905e-05  704 4.133e-05  
388 1.869e-04  468 2.637e-02  548 3.897e-04  628 5.226e-05  708 5.676e-05  
392 1.460e-04  472 2.602e-02  552 3.711e-04  632 5.460e-05  712 5.954e-05  
396 1.431e-04  476 2.488e-02  556 2.863e-04  636 4.758e-05  716 6.134e-05  
400 1.501e-04  480 2.418e-02  560 2.110e-04  640 7.493e-05  720 9.642e-05  
404 1.590e-04  484 2.498e-02  564 1.704e-04  644 5.416e-05  724 9.440e-05  
408 1.652e-04  488 2.495e-02  568 1.271e-04  648 5.646e-05  728 8.151e-05  
412 1.743e-04  492 2.199e-02  572 1.388e-04  652 3.957e-05  732 6.582e-05  
416 1.944e-04  496 1.767e-02  576 1.240e-04  656 3.654e-05  736 8.577e-05  
420 4.808e-04  500 1.424e-02  580 9.337e-05  660 3.835e-05  740 1.031e-04  
424 2.939e-03  504 1.123e-02  584 7.043e-05  664 2.941e-05  744 7.063e-05  
428 1.310e-02  508 8.210e-03  588 5.744e-05  668 3.252e-05  748 9.835e-05  
432 3.068e-02  512 5.316e-03  592 5.557e-05  672 4.673e-05  752 1.616e-04  
436 4.349e-02  516 3.018e-03  596 5.691e-05  676 5.610e-05  756 1.470e-04  
440 4.831e-02  520 1.591e-03  600 5.746e-05  680 4.105e-05  760 1.367e-04  
444 4.792e-02  524 8.411e-04  604 6.377e-05  684 8.535e-05  764 2.559e-04  
448 4.221e-02  528 5.429e-04  608 4.972e-05  688 4.798e-05  768 2.507e-04  
452 3.585e-02  532 3.911e-04  612 4.430e-05  692 4.739e-05  772 4.560e-04  
456 3.073e-02  536 3.266e-04  616 4.776e-05  696 3.167e-05  776 4.570e-04  
                                                            780 6.571e-04
