=~=~=~=~=~=~=~=~=~=~=~= PuTTY log 2013.10.16 10:20:02 =~=~=~=~=~=~=~=~=~=~=~=

PHOTO RESEARCH - The Light Measurement People
---------------------------------------------
 Instrument       : PR-650         Average Cycles   : 3   
 Serial Number    : 60063509       Integration Time : 89 msec
 Measurement Date : 2013/09/03     Frequency        : DC
 Measurement Time : 01:35:22       File Num/Protect : 51  U
 Accessory        : MS-7

P H O T O M E T R I C   D A T A
-------------------------------
 Luminance      = 4.234e+01 footLamberts
                = 1.451e+02 candelas per square meter

C O L O R I M E T R I C   D A T A
---------------------------------
 CIE 1931:            X = 3.174e+02      x = .142 
( 2 degree observer)  Y = 1.451e+02      y = 0.065 
                      Z = 1.771e+03      z = .793 

 CIE/UCS 1960:  u = .163           v = .112 
 CIE/UCS 1976:  u'= .163           v'= .167 

 Correlated Color Temperature = not applicable.

R A D I O M E T R I C   D A T A
-------------------------------
 Integrated Radiance         : 2.029e+00 w/sr/m2
 Peak Wavelength  : 444 nm
 Peak Radiance               : 4.262e-02 w/sr/m2

S P E C T R A L   D A T A
-------------------------
 Corrected Spectral Radiance (w/sr/m2)

380 1.423e-04  460 2.445e-02  540 2.592e-04  620 3.980e-05  700 4.568e-05  
384 1.565e-04  464 2.296e-02  544 3.012e-04  624 3.772e-05  704 3.970e-05  
388 1.127e-04  468 2.231e-02  548 3.650e-04  628 5.456e-05  708 3.027e-05  
392 1.415e-04  472 2.189e-02  552 3.456e-04  632 4.051e-05  712 3.242e-05  
396 1.407e-04  476 2.141e-02  556 2.741e-04  636 4.141e-05  716 7.387e-05  
400 1.358e-04  480 2.114e-02  560 2.079e-04  640 4.718e-05  720 5.480e-05  
404 1.321e-04  484 2.157e-02  564 1.544e-04  644 5.028e-05  724 8.192e-05  
408 1.428e-04  488 2.105e-02  568 1.424e-04  648 4.447e-05  728 9.629e-05  
412 1.502e-04  492 1.833e-02  572 1.224e-04  652 4.863e-05  732 4.388e-05  
416 1.677e-04  496 1.473e-02  576 1.085e-04  656 4.266e-05  736 4.710e-05  
420 4.328e-04  500 1.170e-02  580 8.736e-05  660 4.576e-05  740 8.373e-05  
424 2.598e-03  504 8.717e-03  584 6.524e-05  664 3.317e-05  744 1.240e-04  
428 1.127e-02  508 5.838e-03  588 4.359e-05  668 4.211e-05  748 6.161e-05  
432 2.585e-02  512 3.471e-03  592 4.493e-05  672 5.502e-05  752 8.827e-05  
436 3.700e-02  516 1.894e-03  596 5.688e-05  676 5.484e-05  756 1.235e-04  
440 4.253e-02  520 1.009e-03  600 4.829e-05  680 3.458e-05  760 2.437e-04  
444 4.262e-02  524 5.808e-04  604 3.778e-05  684 4.764e-05  764 1.721e-04  
448 3.636e-02  528 3.860e-04  608 5.020e-05  688 3.903e-05  768 3.252e-04  
452 3.030e-02  532 3.028e-04  612 5.195e-05  692 3.918e-05  772 2.371e-04  
456 2.648e-02  536 2.658e-04  616 3.951e-05  696 5.577e-05  776 2.757e-04  
                                                            780 4.896e-04
